Temperature, degC 	 Pressure, bar 	 hf, kJ/kg 	 hg, kJ/kg 	 sf, kJ/(kg K) 	 sg, kJ/(kg K) 	 vf, m^3/kg 	 vg, m^3/kg 
0.01	0.00611657	0.000611783	2500.9109946395	0	9.1554914737	0.0010002063	205.9974594854
4	0.0081354938	16.8127172951	2508.237464527	0.0611009773	9.0505562347	0.0010000743	157.1213322514
5	0.0087257486	21.019355831	2510.0717168774	0.0762516518	9.0248586894	0.0010000825	147.0168645061
6	0.0093535306	25.2236629605	2511.9051298992	0.091339574	8.999396572	0.0010001061	137.6381802847
8	0.0107298775	33.6260165856	2515.5693278065	0.1213315653	8.9491672418	0.0010001979	120.8344299395
10	0.0122818387	42.0210886485	2519.2298389404	0.1510850863	8.8998459206	0.0010003464	106.3086968846
11	0.0131294913	46.2162428415	2521.0586437675	0.1658747009	8.8755189732	0.0010004409	99.7926628861
12	0.0140282237	50.4099715858	2522.8864451461	0.1806073323	8.8514109625	0.0010005485	93.7242909414
13	0.0149806377	54.602383983	2524.7132158716	0.1952837607	8.8275192845	0.0010006688	88.0697806593
14	0.0159894406	58.7935801452	2526.5389287185	0.2099047263	8.8038413744	0.0010008015	82.7980991212
15	0.0170574487	62.9836520805	2528.3635564137	0.2244709337	8.7803747058	0.0010009463	77.8807375687
16	0.0181875904	67.1726844956	2530.1870716086	0.2389830549	8.7571167899	0.0010011029	73.2914908852
17	0.0193829088	71.3607555214	2532.0094468513	0.2534417318	8.7340651746	0.0010012711	69.0062576126
18	0.0206465653	75.5479373698	2533.8306545571	0.2678475797	8.7112174441	0.0010014506	65.0028584761
19	0.0219818425	79.7342969275	2535.6506669793	0.282201189	8.6885712175	0.0010016412	61.2608716021
20	0.0233921477	83.919896293	2537.4694561791	0.2965031278	8.6661241488	0.0010018426	57.761482803
21	0.0248810157	88.1047932619	2539.2869939962	0.3107539435	8.6438739255	0.0010020546	54.4873494688
22	0.0264521125	92.2890417649	2541.1032520186	0.3249541649	8.6218182683	0.0010022771	51.4224767527
23	0.0281092382	96.4726922639	2542.918201553	0.3391043037	8.5999549303	0.0010025098	48.5521048757
24	0.0298563307	100.6557921095	2544.7318135952	0.3532048559	8.5782816961	0.0010027526	45.8626064902
25	0.0316974685	104.8383858627	2546.5440588015	0.3672563028	8.5567963813	0.0010030052	43.3413931491
26	0.0336368748	109.0205155861	2548.35490746	0.3812591128	8.5354968318	0.0010032675	40.976830026
27	0.0356789202	113.2022211055	2550.1643294633	0.3952137419	8.5143809231	0.0010035393	38.7581581114
28	0.0378281263	117.3835402458	2551.9722942811	0.4091206349	8.4934465597	0.0010038205	36.6754231912
29	0.0400891693	121.5645090436	2553.7787709345	0.4229802263	8.4726916745	0.001004111	34.7194109793
30	0.0424668834	125.7451619381	2555.5837279712	0.4367929406	8.452114228	0.0010044105	32.8815878383
31	0.0449662639	129.9255319425	2557.387133441	0.4505591938	8.4317122079	0.001004719	31.1540465764
32	0.0475924712	134.1056507988	2559.1889548734	0.4642793933	8.4114836286	0.0010050363	29.5294568599
33	0.0503508338	138.285549116	2560.9891592559	0.4779539388	8.3914265303	0.0010053623	28.0010198235
34	0.053246852	142.465256494	2562.7877130134	0.4915832228	8.3715389789	0.0010056968	26.5624265007
35	0.0562862014	146.6448016353	2564.5845819893	0.5051676309	8.3518190649	0.0010060399	25.2078197317
36	0.0594747366	150.8242124447	2566.3797314275	0.5187075423	8.3322649036	0.0010063913	23.9317592425
38	0.0663236963	159.1827392211	2569.9647295706	0.5456553625	8.293646418	0.0010071187	21.5954108675
40	0.0738442749	167.5410472587	2573.542416808	0.5724296025	8.2556689123	0.0010078784	19.5170436718
45	0.0959438884	188.437174006	2582.4526465914	0.6386242256	8.1634367692	0.001009914	15.2534355388
50	0.1235127043	209.3362003949	2591.3102638166	0.7037939047	8.0749091813	0.0010121368	12.0278641466
55	0.1576141353	230.2410056178	2600.1098173886	0.7679786179	7.9898850157	0.0010145386	9.5649212154
60	0.1994580192	251.1543931381	2608.845404702	0.8312162521	7.9081744097	0.0010171128	7.6676563233
65	0.250410979	272.0791243694	2617.5106723753	0.8935428243	7.8295978595	0.0010198541	6.1938277991
70	0.312006357	293.0179366828	2626.0988205609	0.95499264	7.7539854176	0.001022758	5.0397327017
75	0.3859536269	313.9735540674	2634.6026071001	1.01559842	7.681175975	0.0010258211	4.1290813065
80	0.4741471993	334.9486951434	2643.0143499475	1.0753914097	7.6110166122	0.0010290408	3.4052654064
85	0.5786745487	355.9460810347	2651.3259287174	1.1344014808	7.5433620113	0.001032415	2.825933479
90	0.7018236074	376.9684443135	2659.5287883637	1.1926572289	7.478073931	0.0010359426	2.3591493948
95	0.846089384	398.0185394747	2667.6139493866	1.2501860688	7.4150207449	0.0010396228	1.9806484371
100	1.0141797792	419.0991549977	2675.5720292208	1.3070143278	7.354077051	0.0010434555	1.6718606011
110	1.4337596724	461.3633531387	2691.0676333138	1.4186695174	7.238045797	0.0010515803	1.209389605
120	1.9866539974	503.784567107	2705.934247417	1.5278150478	7.1290908569	0.0010603266	0.8913039522
130	2.7025960656	546.3878367749	2720.0878257369	1.6346312703	7.0264078298	0.0010697113	0.6680844514
140	3.6150096198	589.2002596436	2733.4439437081	1.739289066	6.9292723061	0.0010797596	0.5085191744
150	4.7610138108	632.2515601107	2745.9191425853	1.8419520428	6.8370333416	0.0010905047	0.3925024138
160	6.1813919672	675.5746798636	2757.4305309693	1.9427785229	6.7491038453	0.0011019885	0.3068184475
170	7.9205318369	719.2063979309	2767.8936550359	2.041923368	6.6649484232	0.0011142624	0.2426157955
180	10.0263456881	763.1879981829	2777.2194106819	2.1395396975	6.5840707717	0.001127389	0.1938616052
190	12.5501792086	807.5660111798	2785.3110035082	2.23578057	6.5060028407	0.0011414429	0.1563767894
200	15.5467186827	852.3930680834	2792.0615640123	2.3308007061	6.430296772	0.0011565139	0.1272223214
210	19.0739066433	897.7289197645	2797.3523490814	2.4247583526	6.3565190579	0.0011727089	0.1043019481
220	23.1928772773	943.6416987006	2801.051000399	2.5178174199	6.2842455211	0.0011901563	0.0861007204
230	27.9679245577	990.2095414473	2803.0092956133	2.6101500866	6.2130558601	0.0012090108	0.0715102348
240	33.4665187151	1037.5227548257	2803.0599721382	2.7019401597	6.1425269673	0.0012294605	0.0597101233
250	39.7593907084	1085.6868126801	2801.0120704016	2.7933876369	6.0722241011	0.0012517369	0.050086565
260	46.9207105436	1134.8266316172	2796.6436363951	2.8847151531	6.0016880237	0.001276129	0.0421754868
270	55.0283947409	1185.0928237803	2789.6898612305	2.9761773555	5.9304151362	0.0013030052	0.0356224479
280	64.1645928168	1236.6710007035	2779.8244623369	3.0680747776	5.8578276097	0.0013328453	0.0301539651
290	74.4164254362	1289.7957210967	2766.6326458614	3.1607744802	5.7832318823	0.0013662912	0.0255568267
300	85.8770832956	1344.7713390197	2749.573742544	3.2547405505	5.7057636168	0.001404223	0.0216630647
320	112.8385588655	1462.0510091193	2700.6676873413	3.4491160973	5.5373194499	0.0014990631	0.015475927
340	146.0018105681	1594.4465698708	2622.0667476473	3.6599493787	5.3359115648	0.0016375137	0.0107838325
360	186.6637110275	1761.4917585529	2481	3.916357556	5.0526	0.0018945141	0.006945
374.14	220.9	2099.3	2099.3	4.4298	4.4298	0.003155	0.003155
